# Relative Pressure (p/p0)    Quantity Adsorbed
0.0892951809336705	 39.00816226115211
0.1003827642593527	39.469439922601225
0.1114684393762867	39.74371312670616
0.1225553866323861	40.1426559690405
0.1336411889632366	40.42939613696842
0.1447273729358367	40.75353719636507
0.1558135569084369	41.07767825576178
0.1668985959557879	41.28961664075194
0.1779855432118874	41.68855948308635
0.1890699461896557	41.83816304896175
0.2001556213065897	42.11243625306668
0.2112406603539406	42.32437463805678
0.2223272259682905	42.6859165889224
0.2334122650156415	42.89785497391256
0.2444976857047424	43.14719425037151
0.25558285196601	43.37159959918466
0.2666671277298617	43.50873620123713
0.277751785135463	43.683273694758384
0.2888360608993149	43.82041029681085
0.2999224992997481	44.16948528385342
0.311007283919266	44.35648974119766
0.3220929590361999	44.63076294530259
0.333176853158302	44.73049865588615
0.3442615105639034	44.90503614940752
0.3553461679695048	45.07957364292878
0.3664307405658283	45.24579982723475
0.3775156099946241	45.441115593794336
0.3886003522095033	45.623964396530994
0.3996850520197433	45.80265754465989
0.4107692260124619	45.929820575653935
0.4218541124031131	46.1267986040566
0.4329392786643807	46.351203952869696
0.4440239360699821	46.52574144639101
0.455108211833834	46.662878048443474
0.4661926148116021	46.81248161431887
0.4772798164955348	47.2363583842992
0.4883654916124688	47.51063158840407
0.4994506578737362	47.73503693721716
0.5105348318664548	47.8621999682112
0.521619718257106	48.05917799661387
0.5327038668070411	48.1838476348434
0.543789287496142	48.43318691130236
0.5548759803244082	48.8071958259909
0.5659601288743433	48.93186546422044
0.5770447862799449	49.10640295774169
0.5881293164716296	49.26847348744008
0.5992153732303133	49.5801475830138
0.6102999034219981	49.74221811271212
0.6213872323198472	50.17856184651544
0.6324732890785308	50.49023594208916
0.6435594730511313	50.814377001485866
0.6546450209541484	51.07618324176781
0.6657304416432493	51.32552251822682
0.6768191698941807	51.89900285408254
0.6879058627224469	52.27301176877103
0.6989933188342127	52.721822466397214
0.7100793755928964	53.033496561970935
0.7211684854855772	53.644377789295504
0.7322572137365085	54.21785812515128
0.7433464508431061	54.84120631629878
0.7544375961584523	55.65155896479053
0.765528232618132	56.41204375799049
0.776621413356143	57.42186782764941
0.7877147213080705	58.444158861131314
0.7988073931904153	59.40411507549845
0.8099048992015893	60.83781591513775
0.8210024052127632	62.271516754777
0.8321015650048526	63.86728812411462
0.8432055589257711	65.93680411872441
0.8533009019720391	67.89688787533265
0.8634016586772008	70.38751020351759
0.8734983869416711	72.48334534397577
0.8831040284970665	75.82185973394155
0.8937180071327847	79.23905451781218
0.9013657261546654	81.1251280447413
0.9078829132734876	85.06290761796174
0.9149672382057538	88.15827663571707
0.9228093544794276	91.4634320030408
0.9291524004366564	95.96722657544672
0.9360954706706572	99.3251142314167
0.9372686172164948	101.44964317749913
0.9428544460113196	105.79992094260746
0.9489871108939202	110.57332959097164
0.9453935721789132	107.78840167236802
0.953536407764048	115.87946119346265
0.958706079374768	121.22025369537346
0.9555738658516844	118.07364682630184
0.961693703331032	125.38759893576594
0.9656822327760324	131.1839059825162
0.963230426240766	127.87891387305216
