# Relative Pressure (p/p0)    Quantity Adsorbed
0.034834648826195025	 33.747103527867125
0.0459245220023754	34.432786538129335
0.0570118509002246	34.86913027193265
0.0681000702954897	35.39274275249653
0.0791873991933388	35.82908648629984
0.0902748553051046	36.27789718392597
0.1013611664916213	36.61450520714567
0.1124479865338042	37.000981085657145
0.1235342977203208	37.337589108876784
0.1346212449764203	37.736531951211134
0.1457070473072708	38.02327211913905
0.1567933584937875	38.35988014235864
0.1678789063968048	38.621686382640576
0.1789649631554883	38.93336047821441
0.1900515287698382	39.29490242907991
0.2011374583146051	39.5941095608307
0.2122236422872053	39.91825062022741
0.22330855412064	40.11772204139464
0.2343941020236571	40.379528281676585
0.2454785050014255	40.52913184755198
0.2565649434018587	40.87820683459461
0.2676496008074601	41.05274432811592
0.2787350214965608	41.30208360457488
0.2898195516882457	41.46415413427326
0.3009047179495133	41.68855948308635
0.3119888664994484	41.813229121315885
0.3230740327607161	42.03763447012898
0.334160598375066	42.39917642099448
0.3452464007059165	42.6859165889224
0.3563309308976014	42.84798711862072
0.36741495223362	42.960189793027325
0.3785002457088041	43.19706210566335
0.3895845214726557	43.33419870771576
0.4006694333060904	43.53367012888299
0.411753709069942	43.67080673093545
0.4228383664755434	43.84534422445671
0.433922642239395	43.982480826509175
0.4450078085006627	44.206886175322325
0.4560933564036801	44.468692415604266
0.4671778865953649	44.63076294530259
0.4782639433540484	44.94243704087632
0.489348855187483	45.141908462043546
0.5004332581652512	45.291512027919
0.5115177883569361	45.45358255761733
0.522603209046037	45.702921834076335
0.5336882480933879	45.9148602190665
0.544773287140739	46.1267986040566
0.555859216685506	46.426005735807394
0.5669440013050241	46.613010193151695
0.578029930849791	46.91221732490243
0.5891150971110587	47.13662267371552
0.6002012810836589	47.46076373311223
0.6112855568475105	47.597900335164695
0.6223717408201107	47.92204139456141
0.6334580520066274	48.2586494177811
0.6445439815513944	48.55785654953189
0.6556304199518276	48.90693153657446
0.666715077357429	49.081469030095775
0.6778031695387775	49.59261454683673
0.6888893535113777	49.91675560623344
0.6999761735535607	50.30323148474491
0.7110631208096602	50.70217432707926
0.7221500680657597	51.10111716941367
0.7332386691027745	51.66213054144646
0.7443254891449574	52.048606419957935
0.755414726251555	52.67195461110544
0.7665028184329036	53.18310012784639
0.777592691609084	53.868783138108654
0.7886829464270141	54.59186703983971
0.7997744733841098	55.43962057980036
0.8108662547690385	56.31230804740687
0.821959562720966	57.33459908088878
0.8330521073893943	58.28208833143299
0.8441498678284015	59.74072309871815
0.8552454656308269	60.98741948101315
0.8663488234821629	62.99460065650817
0.8774504003386668	64.82724433848176
0.8885601188858306	67.45777370512428
0.8996688197216621	69.98856736118319
0.9082610384670476	72.74999984796665
0.9148372982766954	75.42416358798943
0.9214137913118572	78.1211834283543
0.9294547709544656	80.71846755813556
0.9355864393280532	84.70374032687198
0.9409911574055172	87.7615600369225
0.9467455804818012	92.17768513873057
0.95057835910178	95.27711086693624
0.954375086711294	99.33164454580016
0.9609920516613788	105.9949120486508
0.9569214428698122	102.02866438616502
0.964567857949048	110.83969106803504
0.9698423157327368	118.85427056106198
0.9666203590823176	114.50809517293813
0.9758429121831016	129.6731177499051
0.9727617699216818	123.93623656404418
0.9737962416876744	126.57611615355388
0.977914187970224	135.1814379323452
0.9823071200903922	146.0507834283543
0.9799684382948464	139.02126278981382
0.9805075390697516	142.48396199163824
0.9862960267010972	157.71859178328327
0.984124400336128	151.3521289243634
0.9846608190176256	154.551982972254
0.989353316353162	170.09413120486516
0.9909688228414224	180.3062368377044
0.9872542867299102	161.86593508171808
0.9883005363843446	165.66004773850256
0.990620104053346	175.75330164956296
