# Relative Pressure (p/p0)    Quantity Adsorbed
0.9605911330049262	 17.60920085756834
0.923645320197044	17.449225078965014
0.901477832512315	17.12068147226813
0.8620689655172411	16.961114838878586
0.8374384236453198	16.46686742058489
0.7906403940886695	16.142415266026205
0.7413793103448274	15.818372256681355
0.694581280788177	14.995581231690778
0.6379310344827585	14.340539744366083
0.5935960591133003	13.68345253097226
0.5443349753694577	13.027183608006167
0.4950738916256156	12.20480172822937
0.4458128078817731	11.714645762073872
0.3940886699507389	10.72656007070026
0.3522167487684728	9.736837798471411
0.298029556650246	9.081387165932938
0.2487684729064039	7.428440502103001
0.1970443349753692	6.274241853918795
0.1477832512315267	5.285747017331346
0.1009852216748767	3.632391208287629
