# Relative Pressure (p/p0)    Quantity Adsorbed
0.9504504504504503	 179.5357104092045
0.8828828828828827	177.16677520894405
0.8310810810810811	175.39075219798133
0.7837837837837838	173.00960599153382
0.7319819819819819	170.63117334201684
0.6824324324324322	169.45620319114312
0.6306306306306306	168.28258981873444
0.5788288288288288	167.10897644632587
0.5337837837837838	165.93129273852173
0.484234234234234	164.756322587648
0.4324324324324324	164.1851188537936
0.3828828828828827	163.61255834147414
0.3310810810810809	162.43894496906546
0.2837837837837837	161.86502767828074
0.2297297297297298	161.2951807228916
0.1801801801801801	159.5178009334636
0.1328828828828829	159.54629328123303
0.0855855855855856	157.76755671334
