# Relative Pressure (p/p0)    Quantity Adsorbed
0.008818759392404174	 209.32422677655723
0.0106317695064107	218.3081509728884
0.0130155139915905	226.2311348466951
0.0144285805422647	232.74137384818917
0.0185575409598375	240.61340285115784
0.022073743035274	248.16678936942617
0.0270078793678412	254.33613035611256
0.0326781847179935	259.9584722045786
0.0439811347420313	265.45169650142304
0.0577706388284762	271.39455201078874
0.0729956792808469	274.9353354320291
0.0888701290416125	277.86047685277015
0.1033916427432216	280.6655831514884
0.1200578106423082	282.6398194011948
0.1376159141655792	285.07004730818005
0.1537148510946787	286.73631103062803
0.1674306162099463	287.71613487399463
0.1829943917645352	289.0284954309767
0.2013442134261273	290.787299728279
0.214866635884052	291.5918851853836
0.2317401768885023	292.9227464204175
0.2476146266492678	293.81802059439724
0.2634890764100333	294.68982809500415
0.2793635261707989	295.514702248865
0.2957991938523996	295.75611622298936
0.3111124256923301	297.00018384297584
0.3269868754530955	297.42612454949654
0.342861325213861	298.0163319696277
0.3587357749746267	298.5830727163859
0.3746102247353922	298.98554674953346
0.3917216446073863	299.4585443116072
0.405012201246919	299.48242542564435
0.4222335740176888	300.4745689294515
0.4381080237784545	300.9709096560909
0.4539824735392199	301.58458374959514
0.4698569232999856	301.7993243957591
0.4857313730607511	302.31913179577134
0.5010446049006814	301.9231396878031
0.5174802725822822	303.14754653543935
0.5333547223430477	303.26842048811125
0.5492291721038134	303.88209458161555
0.5651036218645789	303.9795018609145
0.5809780716253443	304.71050932128355
0.5982054574452662	304.42195157800097
0.6141701029433086	305.3728458848349
0.6300445527040743	305.4467864907608
0.6459190024648398	305.89619387065443
0.6617934522256055	306.1578678635641
0.677667901986371	306.208341796117
0.6947793218583647	306.3058725842234
0.7080638654487459	306.18778787211465
0.7252912512686676	307.1576304884572
0.7411657010294332	307.44277115473983
0.7570401507901987	307.6340451275307
0.7729146005509642	307.84878577369454
0.7887890503117299	308.29819315358804
0.8041022821516601	307.7092528423309
0.820537949833261	308.5868744056778
0.8364123995940265	309.0362817855713
0.8522868493547919	309.0398223713784
0.8681612991155576	309.0198962838126
0.8840357488763231	309.6570370506897
0.901183550222177	309.1302889400596
0.9157846483978542	309.8753182826607
0.9316590981586196	310.488992376165
0.948770518030614	310.2462564003632
0.9620610746701465	310.29595085511073
0.9792824474409164	311.2505476815212
0.9945956792808468	310.6681258906456
