# Relative Pressure (p/p0)    Quantity Adsorbed
0.03082348733233975	 552.0691896518774
0.0323171385991057	586.1449989159528
0.0343086736214603	621.0959144701146
0.0367980923994037	665.7971274810898
0.038988780923994	698.4820067584988
0.0412790461997019	729.9372766571933
0.0458844709388971	765.2994983940425
0.0494714970871155	800.1308192282004
0.0530069746646795	828.1752736765684
0.0605542601660633	877.6805814752415
0.0634846616989566	903.3996725060388
0.0692483983518891	928.4796009250194
0.0735751058122204	954.090178490821
0.0774111816052799	977.7847956541592
0.0852034575260803	995.7746370052146
0.0983143964232489	1041.0886434612266
0.1071182456887374	1062.4090426961593
0.1170656126482212	1084.0854226328374
0.1282915543087577	1105.7355613868276
0.1383663785394933	1117.230436020851
0.149319821162444	1128.2011405686371
0.1602732637853947	1141.002818583148
0.1703480880161303	1145.049525133074
0.182628244411326	1156.0497159459464
0.1931335916542473	1160.910325808999
0.2036389388971682	1164.451695815258
0.215040476900149	1173.7438156085557
0.2262310070257609	1178.2499964964572
0.2361728763040236	1180.3741213448611
0.2483489001490311	1187.1277005987404
0.258268501797142	1188.903278097463
0.2698076900149031	1196.531828660998
0.2807611326378538	1200.03779522906
0.2921626706408342	1202.2172873246973
0.3026680178837555	1204.7492745223772
0.3127679454971257	1207.7369435511282
0.3245749031296572	1213.4982850500082
0.3355283457526079	1216.4408751667715
0.3464817883755589	1219.852945659617
0.3579593191622869	1221.8980815722734
0.3676418479880774	1224.6801595620373
0.3717078986587181	1224.24827396015
0.3814166318926975	1231.5093138969169
0.3930961549925484	1236.413737652626
0.4030034490100063	1238.0390492728438
0.4141939791356184	1244.7271960991138
0.4251474217585691	1248.984331268909
0.4370343964232488	1252.3676364682196
0.4470543070044708	1254.0244468254832
0.4571291312352064	1255.3978768810075
0.4687952309985095	1260.9668985762592
0.4799146348733234	1264.354554379236
0.4917215925058547	1266.1118989563793
0.5018215201192249	1267.4698003938693
0.5125260208643814	1271.391885634068
0.5240603278688523	1273.2200798453769
0.5346818479880775	1277.3773756091475
0.5465646736214604	1277.3100235610236
0.5563516457313178	1278.0414893797597
0.5675421758569299	1282.0737186499018
0.5784956184798806	1283.3261794127648
0.5894490611028316	1284.7664323260597
0.6006395912284435	1285.1680133544914
0.6105024313391525	1285.7269063476078
0.622309388971684	1289.744463592464
0.6332628315946347	1290.2457557535936
0.6450697892271662	1289.5886298251653
0.6551697168405364	1289.9807430604278
0.6661231594634873	1294.0031380421815
0.677076602086438	1294.1288459024436
0.688030044709389	1294.0667616122737
0.6992205748350009	1292.6261910697867
0.7090033979135617	1294.27065206522
0.7208903725782414	1296.979079223911
0.7318438152011921	1296.9169949337402
0.7434866353318812	1296.135948514042
0.7537507004470938	1295.5721773755831
0.7642892399403873	1298.0241647751154
0.7756575856929955	1300.8000850825902
0.7866110283159462	1300.7380007924205
0.798338956780924	1298.2041465052062
0.8078890077653149	1298.1167961203382
0.8194713561847988	1300.551747921908
0.8304247988077496	1300.489663631738
0.8417931445603577	1300.1670134570631
0.8523316840536512	1299.8490666377047
0.8624316116670214	1301.193554350165
0.8742385692995529	1303.3398969532054
0.8851920119225036	1303.2778126630346
0.8970789865871833	1301.9839196156163
0.9066508017883754	1301.5036129707505
0.918052339791356	1303.0915597925225
0.929005782414307	1304.719604856252
0.9399592250372576	1306.0659616943312
0.9513607630402384	1304.1421953030003
0.9589783845007448	1303.995732818461
