# Relative Pressure (p/p0)    Quantity Adsorbed
0.955066429961223	 456.3102725366877
0.912514687041833	456.3102725366877
0.8512294723969256	454.21383647798746
0.8086830818980284	455.2620545073376
0.7576102855537745	453.16561844863736
0.7150531902138915	452.11740041928726
0.6520712582727013	451.0691823899371
0.6061100234992671	450.0209643605871
0.5414206694208084	447.9245283018868
0.4988689265014183	447.9245283018868
0.4512002695907154	445.8280922431866
0.4069411045340568	444.7798742138365
0.3473526071854319	441.6352201257862
0.3013806675710117	438.4905660377359
0.2622170068236938	435.3459119496856
0.1992243700415177	432.2012578616352
0.1617574265904825	428.0083857442348
0.1089504460064948	419.622641509434
0.0936157612940354	416.4779874213837
0.0816798635946343	412.2851153039833
0.0714513880325016	409.1404612159329
0.0646163470629342	403.8993710691825
0.0509730272262644	398.6582809224319
0.0441272814157109	391.3207547169812
0.0406910274592017	385.03144654088055
0.0372440686617066	376.64570230607967
0.0320896877269427	367.2117400419288
0.030323388964251	354.6331236897275
0.0268764301667557	346.24737945492666
0.0251583031885012	343.1027253668763
0.0234294713692604	337.86163522012583
0.0234027092667954	332.6205450733753
0.0199611028897932	325.2830188679245
0.0182215662295666	317.9454926624738
0.0181733944451295	308.5115303983229
0.0181359275016785	301.1740041928722
0.0180824032967484	290.6918238993711
0.0180395839328044	282.3060796645703
0.0128798505775475	271.8238993710692
0.0128637933160685	268.67924528301893
0.011134961496828	263.4381551362684
0.0094114820980802	259.24528301886795
0.0093793675751222	252.9559748427673
0.0093472530521642	246.66666666666669
0.0093258433701922	242.4737945492663
0.0092883764267411	235.1362683438156
0.005825360367767	223.6058700209644
0.005771836162837	213.12368972746333
0.005739721639879	206.83438155136264
0.0039252510927502	184.8218029350105
0.0020626087611844	153.3752620545074
0.0018431595209712	110.398322851153
0.0016772344856881	77.90356394129981
-0.0002068175278496	42.2641509433962
-0.0021069268028663	3.4800838574423096
